# T (K)	Lambda=e_dot/nH^2 (erg cm^3 s^-1)
1.000000e+01	4.777563e-29
1.002305e+01	4.803484e-29
1.004616e+01	4.842512e-29
1.006932e+01	4.868631e-29
1.009253e+01	4.894832e-29
1.011579e+01	4.934282e-29
1.013911e+01	4.960684e-29
1.016249e+01	4.987167e-29
1.018591e+01	5.027044e-29
1.020939e+01	5.053731e-29
1.023293e+01	5.080500e-29
1.025652e+01	5.120810e-29
1.028016e+01	5.147786e-29
1.030386e+01	5.174846e-29
1.032761e+01	5.215591e-29
1.035142e+01	5.242861e-29
1.037528e+01	5.283922e-29
1.039920e+01	5.311401e-29
1.042317e+01	5.338967e-29
1.044720e+01	5.380474e-29
1.047129e+01	5.408253e-29
1.049542e+01	5.450083e-29
1.051962e+01	5.478078e-29
1.054387e+01	5.506158e-29
1.056818e+01	5.548443e-29
1.059254e+01	5.576744e-29
1.061696e+01	5.619358e-29
1.064143e+01	5.647878e-29
1.066596e+01	5.690824e-29
1.069055e+01	5.719566e-29
1.071519e+01	5.762848e-29
1.073989e+01	5.791814e-29
1.076465e+01	5.820872e-29
1.078947e+01	5.864627e-29
1.081434e+01	5.893912e-29
1.083927e+01	5.938009e-29
1.086426e+01	5.967521e-29
1.088930e+01	6.011966e-29
1.091440e+01	6.041710e-29
1.093956e+01	6.086501e-29
1.096478e+01	6.116480e-29
1.099006e+01	6.161623e-29
1.101539e+01	6.206980e-29
1.104079e+01	6.237335e-29
1.106624e+01	6.283047e-29
1.109175e+01	6.313643e-29
1.111732e+01	6.359716e-29
1.114295e+01	6.390552e-29
1.116863e+01	6.436988e-29
1.119438e+01	6.468067e-29
1.122018e+01	6.514871e-29
1.124605e+01	6.561895e-29
1.127197e+01	6.593369e-29
1.129796e+01	6.640765e-29
1.132400e+01	6.672487e-29
1.135011e+01	6.720260e-29
1.137627e+01	6.768258e-29
1.140250e+01	6.800382e-29
1.142878e+01	6.848763e-29
1.145513e+01	6.897372e-29
1.148154e+01	6.929905e-29
1.150800e+01	6.978902e-29
1.153453e+01	7.011694e-29
1.156112e+01	7.061081e-29
1.158777e+01	7.110701e-29
1.161449e+01	7.143912e-29
1.164126e+01	7.193929e-29
1.166810e+01	7.244183e-29
1.169499e+01	7.277818e-29
1.172195e+01	7.328474e-29
1.174898e+01	7.379371e-29
1.177606e+01	7.430511e-29
1.180321e+01	7.464742e-29
1.183042e+01	7.516290e-29
1.185769e+01	7.568085e-29
1.188502e+01	7.620130e-29
1.191242e+01	7.654964e-29
1.193988e+01	7.707423e-29
1.196741e+01	7.760136e-29
1.199499e+01	7.795416e-29
1.202264e+01	7.848938e-29
1.205036e+01	7.902912e-29
1.207814e+01	7.957149e-29
1.210598e+01	8.011651e-29
1.213389e+01	8.048134e-29
1.216186e+01	8.103079e-29
1.218990e+01	8.158293e-29
1.221800e+01	8.213777e-29
1.224616e+01	8.269530e-29
1.227439e+01	8.306851e-29
1.230269e+01	8.363058e-29
1.233105e+01	8.419540e-29
1.235947e+01	8.476296e-29
1.238797e+01	8.533332e-29
1.241652e+01	8.590644e-29
1.244515e+01	8.648235e-29
1.247384e+01	8.686786e-29
1.250259e+01	8.744846e-29
1.253141e+01	8.803189e-29
1.256030e+01	8.861818e-29
1.258925e+01	8.920731e-29
1.261828e+01	8.979931e-29
1.264736e+01	9.039419e-29
1.267652e+01	9.099198e-29
1.270574e+01	9.159267e-29
1.273503e+01	9.219628e-29
1.276439e+01	9.260032e-29
1.279381e+01	9.320883e-29
1.282331e+01	9.382030e-29
1.285287e+01	9.443475e-29
1.288250e+01	9.505218e-29
1.291219e+01	9.567260e-29
1.294196e+01	9.629602e-29
1.297179e+01	9.692250e-29
1.300170e+01	9.755199e-29
1.303167e+01	9.818453e-29
1.306171e+01	9.882015e-29
1.309182e+01	9.945883e-29
1.312200e+01	1.001006e-28
1.315225e+01	1.007455e-28
1.318257e+01	1.013935e-28
1.321296e+01	1.020446e-28
1.324342e+01	1.026988e-28
1.327394e+01	1.033563e-28
1.330454e+01	1.040169e-28
1.333521e+01	1.049026e-28
1.336596e+01	1.055706e-28
1.339677e+01	1.062418e-28
1.342765e+01	1.069163e-28
1.345860e+01	1.075940e-28
1.348963e+01	1.082749e-28
1.352073e+01	1.089592e-28
1.355189e+01	1.096467e-28
1.358313e+01	1.103374e-28
1.361445e+01	1.110315e-28
1.364583e+01	1.119621e-28
1.367729e+01	1.126639e-28
1.370882e+01	1.133691e-28
1.374042e+01	1.140776e-28
1.377209e+01	1.147895e-28
1.380384e+01	1.155047e-28
1.383566e+01	1.164637e-28
1.386756e+01	1.171869e-28
1.389953e+01	1.179135e-28
1.393157e+01	1.186436e-28
1.396368e+01	1.193771e-28
1.399587e+01	1.203605e-28
1.402814e+01	1.211066e-28
1.406048e+01	1.218564e-28
1.409289e+01	1.226097e-28
1.412538e+01	1.236196e-28
1.415794e+01	1.243812e-28
1.419058e+01	1.251465e-28
1.422329e+01	1.259153e-28
1.425608e+01	1.269461e-28
1.428894e+01	1.277234e-28
1.432188e+01	1.285044e-28
1.435489e+01	1.292891e-28
1.438799e+01	1.303410e-28
1.442115e+01	1.311343e-28
1.445440e+01	1.319312e-28
1.448772e+01	1.329996e-28
1.452112e+01	1.338053e-28
1.455459e+01	1.346147e-28
1.458814e+01	1.356998e-28
1.462177e+01	1.365180e-28
1.465548e+01	1.376148e-28
1.468926e+01	1.384418e-28
1.472313e+01	1.392727e-28
1.475707e+01	1.403865e-28
1.479108e+01	1.412263e-28
1.482518e+01	1.423520e-28
1.485936e+01	1.432008e-28
1.489361e+01	1.440535e-28
1.492794e+01	1.451964e-28
1.496236e+01	1.460582e-28
1.499685e+01	1.472133e-28
1.503142e+01	1.480842e-28
1.506607e+01	1.492516e-28
1.510080e+01	1.501318e-28
1.513561e+01	1.513114e-28
1.517050e+01	1.522008e-28
1.520548e+01	1.533929e-28
1.524053e+01	1.542916e-28
1.527566e+01	1.554962e-28
1.531087e+01	1.564043e-28
1.534617e+01	1.576214e-28
1.538155e+01	1.585390e-28
1.541700e+01	1.597687e-28
1.545254e+01	1.606957e-28
1.548817e+01	1.619382e-28
1.552387e+01	1.628748e-28
1.555966e+01	1.641300e-28
1.559553e+01	1.653925e-28
1.563148e+01	1.663443e-28
1.566751e+01	1.676197e-28
1.570363e+01	1.685811e-28
1.573983e+01	1.698695e-28
1.577611e+01	1.711653e-28
1.581248e+01	1.721421e-28
1.584893e+01	1.734509e-28
1.588547e+01	1.747673e-28
1.592209e+01	1.757595e-28
1.595879e+01	1.770891e-28
1.599558e+01	1.784262e-28
1.603245e+01	1.794340e-28
1.606941e+01	1.807844e-28
1.610646e+01	1.821424e-28
1.614359e+01	1.831659e-28
1.618080e+01	1.845373e-28
1.621810e+01	1.859164e-28
1.625549e+01	1.873032e-28
1.629296e+01	1.883483e-28
1.633052e+01	1.897485e-28
1.636817e+01	1.911566e-28
1.640590e+01	1.925723e-28
1.644372e+01	1.936393e-28
1.648162e+01	1.950687e-28
1.651962e+01	1.965060e-28
1.655770e+01	1.979510e-28
1.659587e+01	1.994040e-28
1.663413e+01	2.004989e-28
1.667247e+01	2.019657e-28
1.671091e+01	2.034403e-28
1.674943e+01	2.049229e-28
1.678804e+01	2.064135e-28
1.682674e+01	2.079119e-28
1.686553e+01	2.094185e-28
1.690441e+01	2.105535e-28
1.694338e+01	2.120741e-28
1.698244e+01	2.136025e-28
1.702159e+01	2.151391e-28
1.706082e+01	2.166837e-28
1.710015e+01	2.182365e-28
1.713957e+01	2.197972e-28
1.717908e+01	2.213662e-28
1.721869e+01	2.229432e-28
1.725838e+01	2.245284e-28
1.729816e+01	2.261217e-28
1.733804e+01	2.277232e-28
1.737801e+01	2.293329e-28
1.741807e+01	2.309508e-28
1.745822e+01	2.325768e-28
1.749847e+01	2.342112e-28
1.753881e+01	2.358538e-28
1.757924e+01	2.375046e-28
1.761976e+01	2.391638e-28
1.766038e+01	2.408311e-28
1.770109e+01	2.425069e-28
1.774189e+01	2.441908e-28
1.778279e+01	2.458832e-28
1.782379e+01	2.475838e-28
1.786488e+01	2.492929e-28
1.790606e+01	2.514409e-28
1.794734e+01	2.531687e-28
1.798871e+01	2.549049e-28
1.803018e+01	2.566496e-28
1.807174e+01	2.584026e-28
1.811340e+01	2.601641e-28
1.815516e+01	2.623778e-28
1.819701e+01	2.641583e-28
1.823896e+01	2.659472e-28
1.828100e+01	2.677446e-28
1.832314e+01	2.695504e-28
1.836538e+01	2.718198e-28
1.840772e+01	2.736447e-28
1.845015e+01	2.754783e-28
1.849269e+01	2.773203e-28
1.853532e+01	2.796349e-28
1.857804e+01	2.814961e-28
1.862087e+01	2.833659e-28
1.866380e+01	2.852442e-28
1.870682e+01	2.876042e-28
1.874995e+01	2.895019e-28
1.879317e+01	2.914082e-28
1.883649e+01	2.938030e-28
1.887991e+01	2.957286e-28
1.892344e+01	2.976629e-28
1.896706e+01	3.000927e-28
1.901078e+01	3.020464e-28
1.905461e+01	3.040086e-28
1.909853e+01	3.064737e-28
1.914256e+01	3.084553e-28
1.918669e+01	3.109447e-28
1.923092e+01	3.129459e-28
1.927525e+01	3.154597e-28
1.931968e+01	3.174804e-28
1.936422e+01	3.195099e-28
1.940886e+01	3.220589e-28
1.945360e+01	3.241080e-28
1.949845e+01	3.266814e-28
1.954339e+01	3.287501e-28
1.958845e+01	3.313481e-28
1.963360e+01	3.334362e-28
1.967886e+01	3.360589e-28
1.972423e+01	3.381667e-28
1.976970e+01	3.408139e-28
1.981527e+01	3.434746e-28
1.986095e+01	3.456132e-28
1.990673e+01	3.482985e-28
1.995262e+01	3.504567e-28
1.999862e+01	3.531667e-28
2.004472e+01	3.553704e-28
2.009093e+01	3.581375e-28
2.013724e+01	3.609186e-28
2.018366e+01	3.631537e-28
2.023019e+01	3.659601e-28
2.027683e+01	3.687806e-28
2.032357e+01	3.710471e-28
2.037042e+01	3.738929e-28
2.041738e+01	3.767526e-28
2.046445e+01	3.790505e-28
2.051162e+01	3.819356e-28
2.055891e+01	3.848347e-28
2.060630e+01	3.877479e-28
2.065380e+01	3.900885e-28
2.070141e+01	3.930271e-28
2.074914e+01	3.959796e-28
2.079697e+01	3.989462e-28
2.084491e+01	4.013297e-28
2.089296e+01	4.043216e-28
2.094112e+01	4.073277e-28
2.098940e+01	4.103477e-28
2.103778e+01	4.133819e-28
2.108628e+01	4.164301e-28
2.113489e+01	4.188788e-28
2.118361e+01	4.219524e-28
2.123244e+01	4.250400e-28
2.128139e+01	4.281417e-28
2.133045e+01	4.312574e-28
2.137962e+01	4.343872e-28
2.142891e+01	4.375311e-28
2.147830e+01	4.406890e-28
2.152782e+01	4.438611e-28
2.157744e+01	4.470470e-28
2.162719e+01	4.502471e-28
2.167704e+01	4.534612e-28
2.172701e+01	4.566894e-28
2.177710e+01	4.599316e-28
2.182730e+01	4.631878e-28
2.187762e+01	4.664580e-28
2.192805e+01	4.697423e-28
2.197860e+01	4.730406e-28
2.202926e+01	4.763529e-28
2.208005e+01	4.796792e-28
2.213095e+01	4.830194e-28
2.218196e+01	4.863737e-28
2.223310e+01	4.897419e-28
2.228435e+01	4.931243e-28
2.233572e+01	4.972014e-28
2.238721e+01	5.006142e-28
2.243882e+01	5.040412e-28
2.249055e+01	5.074820e-28
2.254239e+01	5.109369e-28
2.259436e+01	5.144056e-28
2.264644e+01	5.185864e-28
2.269865e+01	5.220857e-28
2.275097e+01	5.255989e-28
2.280342e+01	5.291260e-28
2.285599e+01	5.333769e-28
2.290868e+01	5.369345e-28
2.296149e+01	5.405059e-28
2.301442e+01	5.440913e-28
2.306747e+01	5.484120e-28
2.312065e+01	5.520278e-28
2.317395e+01	5.556573e-28
2.322737e+01	5.600310e-28
2.328091e+01	5.636910e-28
2.333458e+01	5.673647e-28
2.338837e+01	5.717912e-28
2.344229e+01	5.754953e-28
2.349633e+01	5.799581e-28
2.355049e+01	5.836923e-28
2.360478e+01	5.874402e-28
2.365920e+01	5.919557e-28
2.371374e+01	5.957337e-28
2.376840e+01	6.002854e-28
2.382319e+01	6.040935e-28
2.387811e+01	6.086811e-28
2.393316e+01	6.125192e-28
2.398833e+01	6.171428e-28
2.404363e+01	6.210109e-28
2.409905e+01	6.256703e-28
2.415461e+01	6.295681e-28
2.421029e+01	6.342633e-28
2.426610e+01	6.389782e-28
2.432204e+01	6.429219e-28
2.437811e+01	6.476723e-28
2.443431e+01	6.516459e-28
2.449063e+01	6.564318e-28
2.454709e+01	6.612371e-28
2.460368e+01	6.652564e-28
2.466039e+01	6.700971e-28
2.471724e+01	6.749571e-28
2.477422e+01	6.790219e-28
2.483133e+01	6.839172e-28
2.488857e+01	6.888317e-28
2.494595e+01	6.937655e-28
2.500345e+01	6.978914e-28
2.506109e+01	7.027768e-28
2.511886e+01	7.076798e-28
2.517677e+01	7.126003e-28
2.523481e+01	7.167140e-28
2.529298e+01	7.216666e-28
2.535129e+01	7.266366e-28
2.540973e+01	7.316240e-28
2.546830e+01	7.366287e-28
2.552701e+01	7.416508e-28
2.558586e+01	7.466901e-28
2.564484e+01	7.509027e-28
2.570396e+01	7.559737e-28
2.576321e+01	7.610617e-28
2.582260e+01	7.661669e-28
2.588213e+01	7.712891e-28
2.594179e+01	7.764286e-28
2.600160e+01	7.815848e-28
2.606154e+01	7.867581e-28
2.612161e+01	7.919484e-28
2.618183e+01	7.971553e-28
2.624219e+01	8.023792e-28
2.630268e+01	8.076198e-28
2.636331e+01	8.128774e-28
2.642409e+01	8.181514e-28
2.648500e+01	8.243256e-28
2.654606e+01	8.296357e-28
2.660725e+01	8.349626e-28
2.666859e+01	8.403058e-28
2.673006e+01	8.456656e-28
2.679168e+01	8.510418e-28
2.685344e+01	8.564344e-28
2.691535e+01	8.627464e-28
2.697739e+01	8.681744e-28
2.703958e+01	8.736188e-28
2.710192e+01	8.790792e-28
2.716439e+01	8.845558e-28
2.722701e+01	8.909656e-28
2.728978e+01	8.964774e-28
2.735269e+01	9.020050e-28
2.741574e+01	9.084741e-28
2.747894e+01	9.140362e-28
2.754229e+01	9.196145e-28
2.760578e+01	9.261424e-28
2.766942e+01	9.317548e-28
2.773320e+01	9.373830e-28
2.779713e+01	9.439691e-28
2.786121e+01	9.496315e-28
2.792544e+01	9.562572e-28
2.798981e+01	9.619533e-28
2.805434e+01	9.676649e-28
2.811901e+01	9.743482e-28
2.818383e+01	9.800933e-28
2.824880e+01	9.868154e-28
2.831392e+01	9.925938e-28
2.837919e+01	9.993548e-28
2.844461e+01	1.005167e-27
2.851018e+01	1.011966e-27
2.857591e+01	1.018786e-27
2.864178e+01	1.024648e-27
2.870781e+01	1.031506e-27
2.877398e+01	1.037401e-27
2.884032e+01	1.044297e-27
2.890680e+01	1.051214e-27
2.897344e+01	1.057158e-27
2.904023e+01	1.064113e-27
2.910717e+01	1.071087e-27
2.917427e+01	1.077080e-27
2.924152e+01	1.084092e-27
2.930893e+01	1.091123e-27
2.937650e+01	1.098174e-27
2.944422e+01	1.104234e-27
2.951209e+01	1.111322e-27
2.958012e+01	1.118430e-27
2.964831e+01	1.125557e-27
2.971666e+01	1.132704e-27
2.978516e+01	1.139870e-27
2.985383e+01	1.146028e-27
2.992265e+01	1.153230e-27
2.999163e+01	1.160452e-27
3.006076e+01	1.167733e-27
3.013006e+01	1.175040e-27
3.019952e+01	1.182367e-27
3.026913e+01	1.189713e-27
3.033891e+01	1.197078e-27
3.040885e+01	1.204463e-27
3.047895e+01	1.211866e-27
3.054921e+01	1.219289e-27
3.061963e+01	1.226731e-27
3.069022e+01	1.234191e-27
3.076097e+01	1.241671e-27
3.083188e+01	1.249169e-27
3.090295e+01	1.256686e-27
3.097419e+01	1.264222e-27
3.104560e+01	1.272857e-27
3.111716e+01	1.280433e-27
3.118890e+01	1.288027e-27
3.126079e+01	1.295640e-27
3.133286e+01	1.303270e-27
3.140509e+01	1.312014e-27
3.147748e+01	1.319684e-27
3.155005e+01	1.327372e-27
3.162278e+01	1.335078e-27
3.169567e+01	1.343908e-27
3.176874e+01	1.351652e-27
3.184198e+01	1.359415e-27
3.191538e+01	1.368308e-27
3.198895e+01	1.376109e-27
3.206269e+01	1.383928e-27
3.213661e+01	1.392885e-27
3.221069e+01	1.400741e-27
3.228494e+01	1.408615e-27
3.235937e+01	1.417635e-27
3.243396e+01	1.425547e-27
3.250873e+01	1.434609e-27
3.258367e+01	1.442558e-27
3.265878e+01	1.451662e-27
3.273407e+01	1.459647e-27
3.280953e+01	1.468794e-27
3.288516e+01	1.477963e-27
3.296097e+01	1.486004e-27
3.303695e+01	1.495214e-27
3.311311e+01	1.503292e-27
3.318945e+01	1.512543e-27
3.326596e+01	1.521816e-27
3.334264e+01	1.529949e-27
3.341950e+01	1.539262e-27
3.349654e+01	1.548598e-27
3.357376e+01	1.556785e-27
3.365116e+01	1.566161e-27
3.372873e+01	1.575558e-27
3.380648e+01	1.584976e-27
3.388442e+01	1.593235e-27
3.396253e+01	1.602693e-27
3.404082e+01	1.612172e-27
3.411929e+01	1.621672e-27
3.419794e+01	1.631194e-27
3.427678e+01	1.640735e-27
3.435579e+01	1.650298e-27
3.443499e+01	1.658683e-27
3.451437e+01	1.668283e-27
3.459394e+01	1.677906e-27
3.467369e+01	1.687548e-27
3.475362e+01	1.697210e-27
3.483373e+01	1.706894e-27
3.491403e+01	1.716596e-27
3.499452e+01	1.726320e-27
3.507519e+01	1.737282e-27
3.515604e+01	1.747047e-27
3.523709e+01	1.756833e-27
3.531832e+01	1.766638e-27
3.539973e+01	1.776463e-27
3.548134e+01	1.786307e-27
3.556313e+01	1.796171e-27
3.564511e+01	1.807292e-27
3.572728e+01	1.817197e-27
3.580964e+01	1.827123e-27
3.589219e+01	1.837067e-27
3.597493e+01	1.847031e-27
3.605786e+01	1.858263e-27
3.614099e+01	1.868267e-27
3.622430e+01	1.878290e-27
3.630781e+01	1.889589e-27
3.639150e+01	1.899653e-27
3.647539e+01	1.910997e-27
3.655948e+01	1.921101e-27
3.664376e+01	1.931223e-27
3.672823e+01	1.942633e-27
3.681290e+01	1.952795e-27
3.689776e+01	1.964249e-27
3.698282e+01	1.974450e-27
3.706807e+01	1.985949e-27
3.715352e+01	1.996189e-27
3.723917e+01	2.007731e-27
3.732502e+01	2.019296e-27
3.741106e+01	2.029595e-27
3.749730e+01	2.041204e-27
3.758374e+01	2.051542e-27
3.767038e+01	2.063193e-27
3.775722e+01	2.074867e-27
3.784426e+01	2.085263e-27
3.793150e+01	2.096980e-27
3.801894e+01	2.108719e-27
3.810658e+01	2.120480e-27
3.819443e+01	2.130953e-27
3.828247e+01	2.142757e-27
3.837072e+01	2.154582e-27
3.845918e+01	2.166430e-27
3.854784e+01	2.178299e-27
3.863670e+01	2.190191e-27
3.872576e+01	2.202104e-27
3.881504e+01	2.214040e-27
3.890451e+01	2.224667e-27
3.899420e+01	2.236643e-27
3.908409e+01	2.248641e-27
3.917419e+01	2.260659e-27
3.926449e+01	2.272700e-27
3.935501e+01	2.286104e-27
3.944573e+01	2.298190e-27
3.953666e+01	2.310297e-27
3.962780e+01	2.322425e-27
3.971915e+01	2.334574e-27
3.981072e+01	2.346744e-27
3.990249e+01	2.358936e-27
3.999447e+01	2.371148e-27
4.008667e+01	2.384766e-27
4.017908e+01	2.397048e-27
4.027170e+01	2.409350e-27
4.036454e+01	2.421673e-27
4.045759e+01	2.435389e-27
4.055085e+01	2.447756e-27
4.064433e+01	2.460143e-27
4.073803e+01	2.473931e-27
4.083194e+01	2.486362e-27
4.092607e+01	2.500197e-27
4.102041e+01	2.512671e-27
4.111497e+01	2.525164e-27
4.120975e+01	2.539070e-27
4.130475e+01	2.551606e-27
4.139997e+01	2.565560e-27
4.149540e+01	2.579537e-27
4.159106e+01	2.592139e-27
4.168694e+01	2.606163e-27
4.178304e+01	2.618807e-27
4.187936e+01	2.632879e-27
4.197590e+01	2.646975e-27
4.207266e+01	2.659682e-27
4.216965e+01	2.673824e-27
4.226686e+01	2.687991e-27
4.236430e+01	2.700762e-27
4.246196e+01	2.714975e-27
4.255984e+01	2.729213e-27
4.265795e+01	2.743474e-27
4.275629e+01	2.757759e-27
4.285485e+01	2.770636e-27
4.295364e+01	2.784967e-27
4.305266e+01	2.799322e-27
4.315191e+01	2.813701e-27
4.325138e+01	2.828104e-27
4.335109e+01	2.842530e-27
4.345102e+01	2.856981e-27
4.355119e+01	2.871454e-27
4.365158e+01	2.885952e-27
4.375221e+01	2.900473e-27
4.385307e+01	2.915017e-27
4.395416e+01	2.929586e-27
4.405549e+01	2.945639e-27
4.415704e+01	2.960256e-27
4.425884e+01	2.974897e-27
4.436086e+01	2.989562e-27
4.446313e+01	3.004249e-27
4.456562e+01	3.020433e-27
4.466836e+01	3.035169e-27
4.477133e+01	3.049930e-27
4.487454e+01	3.064713e-27
4.497799e+01	3.081001e-27
4.508167e+01	3.095833e-27
4.518559e+01	3.112175e-27
4.528976e+01	3.127056e-27
4.539416e+01	3.141959e-27
4.549881e+01	3.158379e-27
4.560369e+01	3.173331e-27
4.570882e+01	3.189805e-27
4.581419e+01	3.204805e-27
4.591980e+01	3.221331e-27
4.602566e+01	3.237886e-27
4.613176e+01	3.252960e-27
4.623810e+01	3.269567e-27
4.634469e+01	3.284689e-27
4.645153e+01	3.301349e-27
4.655861e+01	3.318037e-27
4.666594e+01	3.334751e-27
4.677351e+01	3.349972e-27
4.688134e+01	3.366740e-27
4.698941e+01	3.383535e-27
4.709773e+01	3.400358e-27
4.720630e+01	3.417208e-27
4.731513e+01	3.434087e-27
4.742420e+01	3.449454e-27
4.753352e+01	3.466385e-27
4.764310e+01	3.483342e-27
4.775293e+01	3.500328e-27
4.786301e+01	3.517341e-27
4.797334e+01	3.534381e-27
4.808393e+01	3.551449e-27
4.819478e+01	3.568544e-27
4.830588e+01	3.587225e-27
4.841724e+01	3.604377e-27
4.852885e+01	3.621557e-27
4.864072e+01	3.638764e-27
4.875285e+01	3.655999e-27
4.886524e+01	3.674831e-27
4.897788e+01	3.692123e-27
4.909079e+01	3.709443e-27
4.920395e+01	3.726790e-27
4.931738e+01	3.745745e-27
4.943107e+01	3.763149e-27
4.954502e+01	3.782166e-27
4.965923e+01	3.799628e-27
4.977371e+01	3.817116e-27
4.988845e+01	3.836226e-27
5.000345e+01	3.853773e-27
5.011872e+01	3.872570e-27
5.023426e+01	3.889826e-27
5.035006e+01	3.908678e-27
5.046613e+01	3.927561e-27
5.058247e+01	3.944895e-27
5.069907e+01	3.963832e-27
5.081594e+01	3.982799e-27
5.093309e+01	4.000210e-27
5.105050e+01	4.019233e-27
5.116818e+01	4.038284e-27
5.128614e+01	4.057366e-27
5.140437e+01	4.074882e-27
5.152286e+01	4.094019e-27
5.164164e+01	4.113185e-27
5.176068e+01	4.132380e-27
5.188000e+01	4.151605e-27
5.199960e+01	4.170859e-27
5.211947e+01	4.190142e-27
5.223962e+01	4.209456e-27
5.236004e+01	4.228798e-27
5.248075e+01	4.248169e-27
5.260173e+01	4.267570e-27
5.272299e+01	4.287001e-27
5.284453e+01	4.306461e-27
5.296634e+01	4.327577e-27
5.308844e+01	4.347098e-27
5.321083e+01	4.366650e-27
5.333349e+01	4.386231e-27
5.345644e+01	4.407477e-27
5.357967e+01	4.427121e-27
5.370318e+01	4.446794e-27
5.382698e+01	4.468140e-27
5.395106e+01	4.487875e-27
5.407543e+01	4.509289e-27
5.420009e+01	4.529086e-27
5.432503e+01	4.550568e-27
5.445027e+01	4.570428e-27
5.457579e+01	4.591977e-27
5.470160e+01	4.611900e-27
5.482770e+01	4.633517e-27
5.495409e+01	4.653503e-27
5.508077e+01	4.675189e-27
5.520774e+01	4.696910e-27
5.533501e+01	4.718667e-27
5.546257e+01	4.738782e-27
5.559043e+01	4.760608e-27
5.571857e+01	4.782469e-27
5.584702e+01	4.804366e-27
5.597576e+01	4.826300e-27
5.610480e+01	4.846578e-27
5.623413e+01	4.868581e-27
5.636377e+01	4.890620e-27
5.649370e+01	4.912696e-27
5.662393e+01	4.934807e-27
5.675446e+01	4.956955e-27
5.688529e+01	4.980848e-27
5.701643e+01	5.003071e-27
5.714786e+01	5.025332e-27
5.727960e+01	5.047629e-27
5.741165e+01	5.069963e-27
5.754399e+01	5.092333e-27
5.767665e+01	5.116466e-27
5.780960e+01	5.138913e-27
5.794287e+01	5.161397e-27
5.807644e+01	5.185653e-27
5.821032e+01	5.208214e-27
5.834451e+01	5.230813e-27
